WaveLength,SP_53_RawData,SP_54_RawData,SP_55_RawData,SP_56_RawData,SP_57_RawData,SP_58_RawData,SP_59_RawData,SP_60_RawData,SP_61_RawData,SP_62_RawData,SP_63_RawData,SP_64_RawData,dark_RawData
399.71,2198.41,2195.30,2183.48,2177.92,2184.90,2185.23,2186.16,2206.36,2188.15,2182.13,2187.79,2188.02,1527.00
400.05,2207.46,2204.48,2192.48,2186.85,2193.49,2194.34,2195.13,2215.21,2197.10,2190.98,2196.43,2196.93,1527.05
400.38,2216.72,2213.67,2201.79,2195.52,2202.00,2203.38,2203.80,2223.77,2206.25,2199.70,2205.30,2205.26,1527.25
400.72,2225.30,2222.69,2211.03,2204.49,2211.05,2212.48,2212.38,2233.38,2215.18,2208.30,2214.00,2214.08,1527.25
401.06,2234.00,2231.46,2220.13,2212.95,2220.02,2221.54,2221.00,2242.57,2223.87,2217.00,2222.85,2223.20,1527.66
401.40,2242.66,2240.26,2228.85,2222.39,2228.93,2230.92,2230.03,2251.97,2232.66,2225.84,2231.66,2232.08,1527.66
401.73,2252.05,2249.11,2238.36,2231.23,2238.36,2239.95,2239.02,2261.15,2242.57,2234.41,2240.49,2241.57,1527.93
402.07,2260.51,2257.80,2246.79,2240.25,2246.93,2248.87,2247.97,2270.52,2251.30,2243.33,2248.70,2250.49,1527.84
402.41,2269.57,2266.43,2256.07,2249.46,2255.85,2257.95,2256.79,2279.23,2260.51,2251.82,2257.49,2259.15,1528.23
402.75,2279.13,2275.67,2265.20,2258.67,2265.20,2267.28,2265.46,2288.23,2269.16,2260.82,2267.33,2268.31,1528.66
403.08,2287.89,2284.72,2274.39,2267.89,2274.46,2276.48,2274.46,2297.87,2279.03,2269.25,2276.43,2277.36,1528.57
403.42,2297.03,2294.02,2283.31,2276.54,2282.79,2285.56,2283.00,2307.38,2288.34,2277.87,2285.69,2286.59,1528.49
403.76,2306.52,2303.66,2293.26,2285.51,2291.59,2294.52,2292.20,2316.46,2297.82,2286.52,2294.54,2296.15,1528.62
404.09,2316.28,2312.89,2302.64,2294.66,2300.46,2303.75,2301.79,2325.80,2306.85,2295.59,2303.49,2305.70,1528.80
404.43,2325.11,2321.80,2311.56,2303.77,2309.08,2313.20,2310.72,2334.85,2316.41,2304.93,2311.90,2314.67,1528.69
404.77,2334.11,2331.25,2321.18,2312.77,2317.93,2322.82,2320.05,2344.82,2327.05,2314.02,2320.93,2323.70,1529.02
405.11,2343.41,2340.89,2331.25,2321.89,2327.33,2331.97,2328.92,2355.05,2336.46,2323.61,2330.30,2332.75,1529.48
405.44,2353.28,2350.41,2340.64,2330.98,2336.75,2341.54,2337.95,2365.33,2346.38,2333.16,2339.38,2341.49,1529.56
405.78,2362.75,2360.51,2350.23,2340.74,2346.87,2351.56,2347.52,2374.87,2355.79,2342.38,2348.13,2350.62,1529.77
406.12,2372.39,2370.18,2359.69,2350.28,2356.54,2360.85,2356.98,2384.75,2365.08,2351.98,2358.28,2360.02,1529.77
406.45,2382.38,2380.34,2369.52,2360.03,2365.72,2370.44,2366.41,2394.30,2375.39,2361.49,2367.90,2369.46,1529.85
406.79,2392.05,2390.02,2378.82,2369.61,2375.54,2379.80,2375.64,2403.93,2385.00,2371.51,2377.72,2378.74,1529.95
407.13,2401.70,2399.44,2388.16,2379.57,2385.13,2389.51,2385.08,2414.05,2395.46,2381.08,2386.70,2388.05,1530.02
407.46,2411.41,2408.89,2397.97,2389.49,2394.90,2399.11,2394.49,2424.57,2405.69,2390.89,2396.10,2397.67,1530.00
407.80,2422.13,2418.87,2407.49,2398.82,2405.16,2408.72,2404.30,2434.97,2415.56,2400.77,2406.51,2407.38,1530.07
408.14,2432.59,2428.43,2417.33,2408.41,2415.95,2418.57,2414.13,2445.39,2425.54,2410.25,2416.64,2417.07,1530.03
408.48,2442.57,2438.15,2427.18,2418.36,2424.92,2428.11,2423.93,2455.30,2434.70,2419.93,2427.02,2426.36,1529.97
408.81,2452.34,2448.34,2438.05,2428.43,2435.05,2437.72,2434.16,2465.46,2444.41,2429.67,2437.20,2436.85,1529.89
409.15,2462.28,2458.70,2447.82,2438.59,2445.16,2447.34,2444.02,2475.97,2454.49,2440.70,2448.10,2447.00,1529.84
409.49,2472.72,2469.18,2457.74,2449.13,2455.38,2457.43,2454.61,2486.92,2465.49,2451.52,2458.16,2457.20,1530.25
409.82,2483.61,2479.48,2468.31,2460.00,2465.16,2468.20,2464.26,2497.75,2476.51,2461.61,2468.84,2467.38,1530.33
410.16,2493.75,2490.61,2478.75,2470.18,2475.84,2478.21,2474.77,2508.97,2486.87,2472.23,2479.31,2476.70,1530.44
410.50,2504.36,2501.38,2489.43,2480.00,2485.69,2488.38,2485.54,2520.23,2498.16,2482.59,2489.87,2486.79,1530.77
410.83,2515.08,2512.16,2499.28,2490.48,2495.79,2498.61,2496.21,2530.84,2509.11,2493.07,2500.41,2497.38,1530.80
411.17,2526.16,2522.67,2509.89,2501.30,2506.08,2510.03,2508.00,2542.61,2520.59,2504.34,2511.51,2508.56,1531.39
411.51,2537.23,2532.70,2520.51,2511.98,2516.75,2520.79,2518.61,2552.93,2531.38,2514.84,2522.28,2519.26,1531.46
411.84,2548.00,2543.56,2531.23,2522.80,2527.41,2531.44,2529.36,2563.74,2541.93,2525.62,2533.69,2529.90,1531.79
412.18,2558.46,2554.75,2542.59,2533.28,2537.67,2542.66,2540.56,2575.38,2553.59,2536.54,2545.79,2540.70,1532.15
412.52,2569.34,2564.84,2553.61,2543.97,2547.95,2553.44,2552.10,2586.89,2564.61,2547.49,2555.89,2551.93,1532.00
412.85,2580.70,2576.21,2564.77,2555.30,2558.34,2564.20,2563.33,2598.74,2575.75,2558.74,2566.98,2563.36,1531.92
413.19,2592.49,2588.08,2576.57,2565.74,2570.16,2574.44,2575.11,2610.51,2586.98,2569.62,2578.34,2574.92,1532.38
413.53,2604.66,2599.44,2588.18,2577.00,2581.49,2585.74,2586.52,2622.18,2598.46,2581.80,2589.93,2586.77,1532.64
413.86,2616.77,2611.03,2599.79,2587.89,2592.72,2597.21,2597.39,2634.16,2610.33,2593.79,2601.13,2597.59,1532.51
414.20,2627.39,2622.00,2611.00,2598.84,2603.57,2608.20,2608.33,2646.56,2621.56,2604.64,2612.70,2608.25,1532.13
414.54,2638.98,2633.62,2621.84,2609.75,2614.44,2619.62,2619.75,2658.20,2633.57,2615.89,2623.72,2619.51,1532.11
414.87,2650.64,2645.54,2633.31,2621.13,2626.41,2631.43,2631.28,2670.21,2646.15,2627.67,2635.34,2630.72,1531.87
415.21,2662.80,2656.80,2645.30,2632.79,2637.89,2642.48,2642.69,2682.11,2658.84,2639.30,2647.13,2642.92,1531.79
415.55,2675.13,2669.87,2657.48,2645.23,2650.52,2654.23,2654.70,2694.41,2670.70,2651.69,2658.59,2654.82,1531.82
415.88,2687.25,2682.93,2670.18,2656.61,2662.23,2665.10,2667.15,2706.43,2683.23,2663.46,2670.62,2666.79,1531.77
416.22,2699.79,2694.33,2682.46,2668.36,2673.69,2677.79,2678.61,2718.70,2696.21,2676.05,2683.34,2679.59,1531.56
416.56,2711.90,2706.98,2694.61,2680.21,2686.25,2690.26,2691.21,2731.75,2708.59,2688.25,2695.95,2692.43,1531.79
416.89,2724.72,2719.51,2706.95,2692.18,2699.07,2702.20,2703.74,2744.08,2721.59,2701.38,2708.66,2705.39,1532.10
417.23,2737.84,2730.80,2719.31,2704.21,2711.87,2714.08,2716.36,2755.97,2733.95,2714.03,2721.51,2717.39,1532.07
417.57,2749.84,2743.56,2731.30,2716.72,2724.31,2726.75,2728.89,2768.43,2746.57,2725.90,2734.69,2730.02,1531.89
417.90,2761.84,2756.64,2744.79,2730.00,2737.18,2739.59,2742.23,2781.49,2759.41,2738.75,2747.61,2742.61,1532.07
418.24,2775.07,2770.11,2757.13,2742.89,2749.70,2752.13,2755.74,2795.33,2772.51,2752.08,2760.57,2755.21,1531.69
418.58,2788.54,2783.25,2769.44,2755.92,2761.57,2764.97,2768.97,2809.08,2784.75,2765.44,2772.84,2768.31,1531.54
418.91,2802.28,2795.98,2783.80,2769.15,2774.80,2777.72,2782.48,2821.66,2797.95,2778.97,2786.25,2780.89,1531.77
419.25,2816.30,2808.92,2796.23,2782.28,2787.67,2790.93,2795.85,2835.61,2811.10,2791.77,2799.62,2793.43,1531.52
419.58,2830.25,2822.18,2809.54,2794.69,2800.75,2803.62,2809.49,2850.07,2823.49,2804.69,2813.20,2805.67,1531.15
419.92,2843.59,2834.75,2823.66,2808.67,2814.48,2816.66,2823.15,2863.92,2837.15,2818.00,2827.03,2819.26,1531.07
420.26,2857.46,2848.52,2838.20,2822.56,2828.08,2830.41,2836.51,2878.57,2851.70,2831.77,2840.34,2833.46,1531.08
420.59,2872.05,2862.57,2851.89,2836.18,2842.28,2843.75,2850.10,2893.56,2865.74,2846.75,2854.49,2847.54,1531.34
420.93,2886.02,2876.95,2865.36,2850.51,2856.69,2857.49,2863.59,2908.49,2879.13,2860.82,2868.52,2861.80,1531.28
421.27,2900.52,2891.15,2879.26,2864.36,2870.46,2870.90,2877.39,2923.05,2893.82,2874.16,2882.39,2875.39,1531.23
421.60,2914.26,2905.57,2893.56,2878.30,2884.02,2884.57,2892.16,2937.03,2907.74,2887.89,2896.93,2889.23,1531.16
421.94,2928.80,2919.69,2908.02,2891.69,2897.75,2897.61,2905.74,2951.79,2922.43,2901.56,2911.89,2902.33,1531.11
422.27,2942.62,2933.93,2921.90,2906.15,2911.03,2911.70,2919.57,2966.95,2936.70,2916.93,2927.03,2915.61,1530.92
422.61,2957.44,2948.00,2936.41,2920.51,2925.30,2925.82,2933.77,2980.69,2950.74,2930.87,2941.26,2929.23,1530.70
422.95,2972.11,2963.02,2951.05,2934.46,2939.08,2940.18,2948.16,2996.39,2966.02,2945.67,2955.59,2942.92,1530.62
423.28,2986.44,2978.02,2965.08,2948.36,2952.52,2953.90,2962.89,3011.39,2980.70,2959.74,2969.92,2956.77,1530.51
423.62,3001.64,2991.98,2980.08,2962.79,2966.34,2967.90,2977.75,3025.98,2994.51,2974.82,2984.48,2970.92,1530.67
423.96,3017.16,3006.61,2994.79,2977.54,2982.33,2982.59,2993.54,3040.98,3009.84,2990.28,2999.54,2985.43,1531.03
424.29,3032.89,3021.82,3009.89,2992.61,2996.67,2997.85,3009.10,3057.25,3025.08,3006.80,3015.49,2999.80,1531.97
424.63,3048.56,3038.25,3026.03,3008.67,3012.59,3013.31,3024.34,3073.79,3041.41,3023.21,3032.13,3015.21,1533.05
424.96,3064.49,3054.52,3041.87,3025.31,3029.26,3028.75,3040.77,3091.39,3057.98,3038.82,3049.00,3030.97,1534.74
425.30,3080.59,3071.03,3058.72,3041.13,3045.64,3043.75,3056.89,3108.16,3074.26,3054.97,3065.57,3046.02,1535.74
425.64,3096.18,3087.59,3074.41,3057.46,3061.08,3058.87,3073.20,3124.70,3090.67,3071.57,3081.98,3061.20,1536.77
425.97,3111.05,3103.61,3090.62,3072.07,3076.44,3073.72,3088.44,3140.48,3105.74,3087.00,3097.79,3076.84,1537.13
426.31,3126.59,3118.52,3106.13,3086.51,3091.03,3087.59,3103.11,3156.31,3122.64,3102.13,3113.57,3092.30,1537.16
426.64,3141.69,3133.39,3122.18,3102.00,3105.84,3103.00,3117.72,3172.05,3138.07,3117.10,3128.59,3106.54,1537.30
426.98,3157.23,3148.82,3137.79,3116.77,3121.36,3117.98,3132.18,3187.89,3152.85,3132.23,3143.54,3121.07,1537.26
427.31,3174.36,3165.51,3154.20,3132.49,3137.11,3134.13,3148.46,3205.67,3169.26,3147.98,3159.66,3136.57,1538.10
427.65,3190.31,3181.84,3169.28,3147.52,3152.64,3148.97,3163.80,3221.89,3185.15,3163.79,3175.46,3152.18,1538.30
427.99,3207.41,3197.44,3184.67,3162.57,3167.69,3164.85,3179.39,3238.41,3201.15,3179.39,3192.52,3167.02,1538.20
428.32,3223.05,3214.08,3200.70,3177.93,3182.90,3180.16,3194.90,3254.52,3217.57,3195.51,3207.89,3182.00,1538.20
428.66,3239.87,3230.43,3216.70,3193.82,3198.48,3195.51,3210.61,3270.43,3233.92,3211.95,3224.61,3197.25,1538.46
428.99,3255.72,3247.51,3232.89,3209.43,3214.20,3211.41,3226.51,3287.75,3250.80,3229.11,3240.84,3212.59,1538.46
429.33,3271.70,3263.95,3248.18,3224.97,3229.08,3226.80,3241.98,3304.26,3266.87,3245.56,3256.92,3228.18,1538.43
429.66,3288.34,3280.31,3264.56,3239.43,3244.77,3242.41,3258.34,3319.61,3283.02,3261.21,3272.77,3243.02,1538.56
430.00,3304.25,3296.39,3280.59,3255.66,3260.64,3257.82,3274.28,3337.08,3299.43,3277.74,3290.33,3258.84,1538.61
430.34,3320.05,3312.57,3296.69,3271.39,3276.03,3273.23,3290.98,3353.33,3315.95,3294.54,3305.31,3275.80,1538.74
430.67,3336.57,3328.43,3312.64,3287.33,3291.66,3289.62,3307.13,3370.89,3333.48,3311.89,3321.95,3292.23,1538.67
431.01,3352.93,3345.28,3328.52,3304.54,3308.11,3305.13,3324.00,3387.84,3349.15,3328.64,3339.05,3308.31,1538.41
431.34,3368.79,3362.00,3345.89,3320.64,3324.46,3321.18,3339.90,3405.07,3366.31,3345.66,3355.52,3324.26,1538.57
431.68,3385.75,3378.93,3361.34,3336.95,3341.43,3337.11,3354.69,3421.85,3382.75,3361.62,3372.67,3339.97,1538.36
432.01,3402.15,3395.85,3378.49,3353.77,3357.74,3352.52,3371.05,3440.05,3399.82,3379.28,3389.34,3356.59,1538.62
432.35,3418.44,3412.43,3395.69,3370.07,3374.75,3368.74,3387.75,3458.25,3416.74,3396.05,3406.10,3372.64,1538.54
432.69,3435.97,3430.00,3411.33,3387.11,3391.39,3384.93,3403.90,3476.39,3433.72,3412.77,3422.74,3388.89,1538.46
433.02,3453.90,3448.10,3428.70,3404.49,3408.49,3401.64,3419.52,3493.87,3451.36,3429.97,3441.28,3405.39,1538.90
433.36,3471.90,3465.87,3446.28,3420.93,3425.26,3417.61,3436.16,3512.00,3468.98,3447.26,3458.95,3421.54,1539.02
433.69,3488.46,3482.33,3463.11,3438.13,3441.34,3433.64,3452.13,3529.80,3486.97,3464.41,3476.85,3437.82,1538.89
434.03,3505.74,3500.59,3480.25,3455.02,3457.64,3450.02,3468.25,3547.67,3504.30,3481.31,3494.61,3453.93,1538.97
434.36,3522.98,3517.57,3497.59,3473.07,3474.43,3465.89,3484.34,3566.10,3521.74,3497.64,3512.25,3470.97,1539.13
434.70,3540.54,3535.66,3515.13,3490.13,3491.74,3482.64,3501.49,3583.54,3539.92,3515.31,3529.75,3487.95,1539.31
435.03,3558.38,3552.56,3532.25,3507.36,3508.07,3498.15,3517.49,3601.72,3557.36,3532.48,3547.67,3504.52,1539.31
435.37,3576.05,3570.28,3549.82,3524.85,3525.26,3514.28,3534.21,3619.61,3574.39,3549.79,3565.54,3521.56,1539.33
435.70,3593.30,3588.72,3566.90,3542.03,3541.79,3531.49,3550.95,3637.80,3590.54,3567.13,3582.26,3536.90,1539.48
436.04,3611.39,3605.87,3584.26,3559.10,3558.31,3548.13,3567.43,3657.00,3610.43,3584.57,3600.62,3553.16,1539.90
436.37,3630.00,3623.15,3601.05,3577.10,3576.00,3565.44,3583.80,3675.84,3628.05,3602.11,3617.97,3568.93,1540.00
436.71,3649.18,3642.56,3620.41,3595.82,3593.95,3582.70,3601.66,3695.43,3647.00,3621.38,3636.95,3586.54,1541.31
437.05,3667.33,3660.97,3638.28,3614.02,3611.11,3598.30,3618.82,3713.48,3665.69,3640.36,3655.43,3601.69,1541.30
437.38,3685.82,3678.79,3655.77,3632.08,3626.95,3615.25,3636.18,3732.98,3684.15,3657.16,3672.95,3617.72,1541.33
437.72,3703.43,3697.54,3673.18,3648.72,3643.00,3632.36,3653.38,3752.84,3701.33,3674.77,3690.10,3633.67,1540.95
438.05,3722.00,3715.13,3691.72,3665.92,3659.85,3649.61,3669.61,3772.11,3719.66,3693.69,3707.11,3649.87,1540.92
438.39,3740.54,3732.64,3709.33,3682.69,3677.00,3666.11,3687.05,3792.34,3738.44,3711.90,3726.11,3665.70,1540.95
438.72,3758.72,3750.77,3727.51,3700.74,3694.44,3682.98,3704.02,3810.62,3756.66,3730.79,3743.93,3681.75,1541.34
439.06,3776.38,3769.95,3746.13,3717.64,3712.11,3699.46,3720.98,3829.66,3775.21,3749.67,3763.56,3698.46,1541.70
439.39,3794.89,3789.15,3763.05,3735.25,3729.16,3717.16,3737.97,3849.72,3793.84,3768.13,3781.13,3715.03,1541.77
439.73,3813.54,3808.54,3782.67,3753.08,3747.39,3734.57,3754.43,3868.90,3811.93,3787.05,3799.26,3732.62,1541.89
440.06,3831.87,3827.69,3800.41,3771.38,3764.03,3752.56,3771.05,3887.31,3831.08,3805.95,3818.30,3749.52,1542.33
440.40,3850.74,3846.56,3819.08,3788.07,3781.25,3769.90,3787.52,3906.54,3850.08,3824.77,3837.51,3766.31,1542.49
440.73,3870.34,3865.20,3836.36,3805.80,3798.18,3787.31,3804.69,3925.15,3867.75,3842.64,3856.75,3782.26,1542.64
441.07,3888.28,3883.00,3854.72,3824.54,3815.44,3804.64,3822.02,3944.70,3886.33,3860.74,3875.39,3798.18,1542.44
441.40,3907.44,3901.26,3873.25,3842.51,3832.33,3822.08,3840.02,3963.33,3905.59,3880.20,3894.28,3814.57,1542.64
441.74,3925.67,3920.03,3892.00,3860.72,3849.05,3839.89,3857.64,3982.54,3924.30,3900.03,3912.23,3831.41,1542.84
442.07,3945.28,3938.87,3910.69,3879.38,3866.84,3857.26,3873.23,4003.08,3943.66,3919.89,3930.97,3847.82,1542.79
442.41,3964.80,3958.87,3929.03,3898.57,3885.64,3875.28,3891.52,4022.80,3962.98,3939.84,3949.08,3865.56,1543.08
442.74,3984.54,3978.28,3948.07,3916.38,3903.59,3893.38,3909.56,4041.74,3981.59,3958.52,3967.97,3882.70,1543.08
443.08,4003.92,3998.25,3968.05,3934.46,3921.08,3912.03,3927.25,4062.48,4002.07,3977.41,3987.95,3899.77,1543.28
443.41,4023.48,4017.38,3986.59,3953.66,3940.13,3929.75,3945.05,4081.62,4020.87,3996.74,4007.80,3917.18,1543.31
443.75,4043.82,4036.62,4006.13,3972.75,3958.28,3947.69,3961.70,4102.26,4040.95,4016.41,4027.69,3935.38,1543.39
444.08,4064.49,4057.05,4025.28,3990.79,3977.16,3965.62,3979.16,4123.57,4061.64,4035.21,4047.70,3953.33,1543.52
444.41,4083.49,4076.84,4044.75,4009.67,3994.28,3983.38,3996.70,4143.97,4081.00,4054.62,4067.46,3971.28,1543.39
444.75,4102.61,4095.48,4063.05,4027.80,4012.90,4000.46,4014.20,4164.11,4100.15,4073.08,4086.38,3988.62,1542.52
445.08,4122.33,4113.82,4081.34,4045.85,4030.51,4017.97,4032.02,4183.61,4118.56,4092.05,4105.93,4006.25,1541.59
445.42,4141.75,4132.67,4099.75,4062.28,4047.11,4034.98,4048.70,4202.48,4136.98,4110.98,4125.13,4022.75,1540.26
445.75,4160.57,4152.05,4117.31,4080.56,4064.00,4052.25,4065.87,4222.07,4155.49,4129.62,4144.61,4040.74,1539.33
446.09,4180.74,4170.56,4135.82,4098.74,4081.77,4070.13,4081.98,4241.64,4175.25,4149.57,4163.85,4058.41,1538.11
446.42,4201.57,4190.08,4155.26,4118.31,4100.15,4088.89,4099.72,4261.49,4196.72,4169.33,4184.03,4075.13,1537.87
446.76,4221.98,4210.67,4175.23,4137.59,4118.74,4107.46,4117.62,4283.10,4216.16,4191.21,4205.13,4092.89,1537.80
447.09,4243.33,4232.28,4195.02,4156.62,4137.79,4125.89,4136.72,4304.41,4237.34,4212.23,4226.20,4111.89,1538.03
447.43,4264.67,4254.11,4215.48,4176.33,4157.23,4144.87,4156.59,4326.44,4260.03,4234.20,4248.03,4131.30,1538.26
447.76,4284.69,4274.51,4235.36,4195.62,4175.95,4163.46,4173.41,4347.13,4281.38,4255.36,4269.20,4149.43,1537.48
448.10,4306.30,4296.08,4256.21,4215.67,4194.56,4182.52,4191.62,4369.61,4302.10,4277.43,4291.41,4167.28,1537.51
448.43,4327.59,4318.48,4277.51,4235.80,4213.66,4201.11,4210.52,4390.61,4323.34,4298.43,4312.66,4185.64,1537.80
448.76,4347.75,4339.59,4299.10,4256.38,4232.75,4220.69,4229.59,4413.10,4344.62,4319.43,4335.25,4204.30,1538.11
449.10,4368.34,4360.93,4320.62,4277.08,4251.97,4239.31,4248.74,4435.64,4366.67,4340.16,4356.03,4223.64,1538.16
449.43,4389.36,4381.49,4341.72,4296.82,4272.26,4259.52,4268.18,4457.66,4388.25,4361.33,4376.87,4242.69,1538.34
449.77,4411.05,4402.85,4363.25,4316.57,4293.07,4279.15,4287.41,4481.07,4410.74,4382.97,4399.44,4260.72,1538.38
450.10,4432.21,4424.93,4385.05,4338.49,4312.52,4298.84,4305.95,4504.39,4433.57,4405.39,4421.70,4279.67,1538.28
450.44,4454.97,4447.31,4406.92,4358.93,4331.87,4318.75,4324.97,4526.95,4456.25,4426.74,4442.56,4298.79,1538.08
450.77,4477.33,4471.31,4430.08,4379.25,4352.64,4337.77,4344.89,4550.21,4478.23,4448.69,4465.05,4316.67,1538.00
451.10,4500.25,4494.66,4452.93,4400.28,4373.31,4358.30,4364.69,4573.41,4500.48,4470.34,4487.52,4335.13,1538.15
451.44,4522.33,4517.62,4475.36,4421.69,4393.92,4379.30,4383.93,4597.49,4523.74,4492.67,4509.98,4354.59,1538.31
451.77,4545.75,4540.05,4497.34,4443.51,4415.41,4397.79,4403.20,4620.61,4546.82,4514.80,4532.11,4373.33,1538.30
452.11,4567.38,4563.28,4520.54,4464.11,4435.11,4417.77,4423.18,4644.30,4570.10,4538.18,4553.87,4392.26,1538.41
452.44,4590.74,4587.10,4543.89,4484.75,4455.70,4438.21,4443.57,4668.79,4593.95,4561.36,4577.33,4411.67,1538.62
452.78,4614.18,4610.20,4566.28,4505.87,4475.66,4458.56,4463.51,4692.00,4617.05,4585.03,4600.64,4430.02,1538.79
453.11,4637.52,4632.05,4589.38,4527.20,4496.15,4478.46,4483.87,4715.46,4639.62,4609.18,4623.28,4449.57,1538.93
453.44,4659.95,4654.57,4611.20,4547.51,4516.93,4498.48,4504.18,4739.46,4662.51,4631.38,4645.51,4468.20,1538.82
453.78,4682.85,4677.43,4633.98,4569.02,4538.13,4519.03,4524.38,4762.87,4686.33,4654.43,4669.15,4486.97,1538.75
454.11,4706.79,4701.95,4656.80,4590.39,4558.61,4540.59,4544.84,4785.69,4709.79,4678.36,4691.89,4505.13,1538.82
454.45,4730.28,4725.15,4680.33,4612.43,4578.67,4561.36,4565.43,4810.95,4733.75,4701.85,4715.67,4523.62,1538.95
454.78,4753.46,4749.80,4703.98,4633.66,4599.36,4581.85,4586.20,4835.02,4757.30,4725.92,4738.80,4542.67,1538.93
455.11,4778.23,4774.05,4727.97,4655.48,4619.82,4602.16,4606.64,4859.80,4781.66,4749.59,4762.54,4561.97,1539.00
455.45,4802.00,4799.52,4752.02,4677.43,4642.28,4623.38,4627.52,4884.93,4805.93,4773.97,4785.92,4581.49,1539.15
455.78,4826.23,4823.11,4775.36,4698.62,4662.48,4643.69,4648.02,4909.34,4830.11,4797.48,4809.56,4600.89,1539.08
456.12,4850.89,4847.54,4798.77,4720.51,4683.62,4663.18,4669.10,4934.21,4855.30,4822.36,4834.62,4622.08,1539.08
456.45,4874.89,4872.82,4822.16,4743.30,4705.21,4684.00,4689.54,4959.15,4878.72,4847.89,4858.44,4642.66,1539.02
456.78,4898.85,4897.97,4845.38,4765.36,4726.30,4704.80,4709.69,4984.48,4903.79,4873.07,4883.52,4662.23,1538.72
457.12,4923.21,4922.84,4867.38,4788.16,4748.20,4725.74,4730.03,5008.95,4927.56,4895.93,4907.90,4681.61,1538.15
457.45,4947.48,4947.52,4891.48,4810.62,4769.26,4747.64,4751.85,5035.10,4952.87,4920.51,4932.77,4701.54,1538.10
457.79,4972.33,4971.97,4916.08,4832.25,4791.74,4769.61,4772.56,5061.07,4977.64,4946.90,4958.49,4721.16,1538.00
458.12,4997.38,4997.79,4940.77,4855.48,4814.05,4790.69,4792.82,5085.80,5003.39,4973.10,4984.84,4741.02,1538.25
458.45,5024.33,5024.00,4965.10,4878.82,4836.43,4812.23,4814.13,5112.26,5029.05,4999.39,5012.31,4761.21,1538.70
